radius,mass,logT,logRho,logP,logL,mu,eps_nuc,h1,he4,gradr,grada
0.0011233464719598667,7.813019307876341e-08,7.135025638799165,1.890077282672245,17.15426961103447,-5.904359425484737,0.6203911655215371,30.796686342519166,0.6992365113400848,0.2805595237490903,0.7333388728025345,0.3966382852378444
0.0014153313467653147,1.562604094718767e-07,7.135021492488408,1.8900710044937794,17.15425915740344,-5.603361973253012,0.6203911656701585,30.792060150537065,0.6992365113400848,0.2805595237490903,0.7333012778776048,0.3966382896033185
0.0017832130650547377,3.12520842813207e-07,7.135016556026048,1.8900635298638682,17.15424671161534,-5.302387069425534,0.6203911658495984,30.78655335182396,0.6992365113400847,0.2805595237490902,0.7332359268113193,0.3966382948001635
0.002246722511943852,6.250417094958675e-07,7.135008719731091,1.890051664369669,17.154226954748104,-5.001446241644118,0.6203911661400294,30.777813910279686,0.6992365113400848,0.28055952374909016,0.7331293674428088,0.3966383030485715
0.0028307227938206008,1.2500834428611883e-06,7.13499628001745,1.890032828428478,17.154195591657597,-4.7005586427777235,0.6203911666151433,30.763946098644023,0.6992365113400848,0.2805595237490901,0.7329588432004248,0.3966383161394008
0.0035665469399731387,2.5001669098138715e-06,7.134976532273028,1.8900029266218443,17.154145803299294,-4.399755098868071,0.6203911674048299,30.74194538941678,0.6992365113400848,0.2805595237490899,0.7326875642910948,0.39663833691297495
0.004493687043058454,5.000333843719239e-06,7.1349451823427055,1.8899554564012817,17.154066762775976,-4.099084740852623,0.6203911687478256,30.707054353277307,0.6992365113400849,0.28055952374908955,0.7322568870699014,0.3966383698717434
0.0056619299273103635,1.0000667711529972e-05,7.134895411535171,1.88988009189196,17.1539412775647,-3.798625623373777,0.6203911711051543,30.651751126826326,0.699236511340085,0.28055952374908893,0.731573821301773,0.39663842214699485
0.006783882190288569,1.7199137551741247e-05,7.13483115273374,1.8897827906824618,17.153779265780805,-3.563809288050596,0.6203911745583417,30.5805116718377,0.6992365113400851,0.28055952374908816,0.7307862506276286,0.39663848954815
0.007622719863354569,2.439760739195252e-05,7.134767841947498,1.8896869282456565,17.153619647435224,-3.412532999457104,0.6203911784125202,30.510501716124416,0.6992365113400852,0.2805595237490873,0.7301171523145704,0.3966385558538535
0.00889780801250108,3.879454707226405e-05,7.134683304740413,1.8895589153641137,17.15340650282121,-3.212101995808644,0.6203911842543838,30.417293572613428,0.6992365113400855,0.28055952374908616,0.7289391813071353,0.3966386442353239
0.010707903821920653,6.758842643288711e-05,7.134538399831655,1.889339476483772,17.15304113965096,-2.9726841814395164,0.6203911961213139,30.2582536763289,0.6992365113400858,0.28055952374908405,0.726942019817889,0.3966387953133085
0.01315256666007379,0.00012517618515424424,7.134297414113409,1.8889745032230867,17.152433484512542,-2.707812795630795,0.6203912210391337,29.995783528373995,0.6992365113400866,0.2805595237490804,0.7236578853480997,0.39663904539013584
0.016353014425417974,0.0002403517025969585,7.133904581725609,1.8883794730270738,17.151442854614587,-2.4289860011580595,0.6203912755199898,29.573288733914023,0.6992365113400877,0.280559523749074,0.7183747291184278,0.3966394498541538
0.020470648897115473,0.000470702737482165,7.133271519523343,1.8874203461463124,17.149846199277977,-2.144289326692025,0.6203913993858264,28.906166199711592,0.6992365113400897,0.28055952374906307,0.7100111001701831,0.39664009319981175
0.024975534568233128,0.0008530151023301247,7.132372281588213,1.8860579132089066,17.147578172693947,-1.8956598456019589,0.6203916515267516,27.98697834549855,0.6992365113400928,0.2805595237490466,0.6990939347444879,0.39664098868546216
0.03156712688878159,0.0017154865245372515,7.130868508066488,1.8837772290117039,17.143783030192786,-1.6096882129586385,0.620392269509967,26.52124683293319,0.6992365113400983,0.2805595237490177,0.6796676100257629,0.39664243805484783
0.03589749042910308,0.002515121384356015,7.129270061923144,1.881357516461595,17.13975349778208,-1.45662737598173,0.6203931907311406,25.056523604691222,0.6992365113401047,0.2805595237489858,0.6656316471634706,0.39664391224035944
0.03939321110219502,0.00331475624417489,7.127910177244026,1.879298647920687,17.13632501063969,-1.348366240468867,0.6203941786441458,23.881363609799255,0.6992365113401102,0.2805595237489584,0.6535012077902074,0.3966451167575248
0.04409322223401332,0.004629536230151169,7.126263075064309,1.87680211744848,17.13216948511026,-1.2204805727106243,0.6203956109709048,22.539913143894157,0.6992365113401171,0.28055952374892507,0.6360530600754845,0.3966465227188358
0.04798382942203516,0.005944316216127559,7.124420590552125,1.8740128051622227,17.12752430187103,-1.127328833881228,0.6203974973951368,21.13926241210384,0.6992365113401251,0.280559523748888,0.6209457833605301,0.39664803885997235
0.05207358968804068,0.007565490882728839,7.122517256241849,1.8711298726664984,17.12272405208637,-1.0399357334376778,0.6203997253035138,19.7950382093847,0.6992365113401333,0.28055952374885007,0.6045067268068709,0.3966495658700274
0.05562817055177309,0.009186665549330118,7.120566142877553,1.8681764484196581,17.117805032174648,-0.9715575495984778,0.6204022627003727,18.51746151082852,0.6992365113401421,0.280559523748812,0.5899112650068012,0.3966511179430611
0.05879784850775196,0.010807840215931397,7.118726748790675,1.8653923222923896,17.113167694000225,-0.9158411867301661,0.6204048476250158,17.39908691778757,0.6992365113401504,0.28055952374877674,0.5767349346919928,0.3966525985247384
0.06167502359256099,0.012429014882532676,7.116974812289018,1.8627407270594563,17.108750866672825,-0.8691374917312205,0.6204074418786769,16.405887489299907,0.6992365113401584,0.280559523748744,0.5647000924123613,0.39665403893187523
0.063278604806251,0.013396371759034506,7.115633351759216,1.8607124772660502,17.10537092290851,-0.8445757270028887,0.6204094924074599,15.689865266438405,0.6992365113401644,0.2805595237487195,0.5579902444674175,0.39665516299983805
0.06480989185466132,0.014363728635536447,7.114652117098607,1.8592274664045862,17.10289714731789,-0.8220515302141939,0.6204110182958658,15.189124683591828,0.699236511340169,0.28055952374870186,0.551584912244343,0.3966559972496629
0.06768623043245567,0.016298442388539884,7.11320901479559,1.8570404566667083,17.099255894937016,-0.7820788260697825,0.6204132926481106,14.48621456295915,0.6992365113401755,0.2805595237486762,0.5395612328666477,0.39665724063791724
0.07035345130918334,0.018233156141543437,7.111354619207223,1.8542340933515113,17.094580808477996,-0.7475343567136589,0.6204162548062755,13.63859061566626,0.6992365113401842,0.2805595237486438,0.5284804733978846,0.39665885600356815
0.0728474927518911,0.020167869894546987,7.109558307219001,1.851515680379314,17.09005217609745,-0.7172699232385656,0.620419156363143,12.873034925389598,0.6992365113401925,0.280559523748613,0.5182111665994061,0.3966604270787064
0.07541804611799144,0.0222918719833536,7.1077263493945075,1.8487426605393182,17.085433003438514,-0.6879994727874498,0.6204221455655323,12.144500645216302,0.699236511340201,0.28055952374858223,0.507745251432486,0.39666201856323036
0.07783959115218234,0.024415874072160212,7.105861333008523,1.8459202965379,17.080731197098718,-0.6620919534657004,0.6204252252685827,11.453132007480455,0.6992365113402098,0.2805595237485518,0.4980223991922812,0.3966636075614344
0.08024758981054346,0.026648626620192142,7.103995145852493,1.8430957550159193,17.076026073635354,-0.6378315905044353,0.6204283578305027,10.808417707693822,0.6992365113402185,0.2805595237485222,0.4885051522295152,0.396665145423891
0.08253357770209009,0.02888137916822407,7.1021266837054675,1.8402680998131598,17.071315616605418,-0.6161015469425102,0.6204315663047415,10.206679861453091,0.6992365113402272,0.28055952374849363,0.4796278937648036,0.3966666115243704
0.08480668760853473,0.031212409518737386,7.1002569912945965,1.8374381748629784,17.06660174232327,-0.5956772565729135,0.6204348774128896,9.645160356075705,0.6992365113402357,0.280559523748466,0.470967329984343,0.3966679844289519
0.08697783792392777,0.03354343986925071,7.098385088398118,1.834605131443151,17.061882643462525,-0.5772077980604342,0.6204383210339062,9.120721753672349,0.6992365113402441,0.28055952374843945,0.4628635213996176,0.39666924638553885
0.08913670247284,0.035963738885754035,7.096511896829033,1.8317697481697044,17.057160018924,-0.559793936687311,0.6204418896706831,8.630957647007698,0.6992365113402524,0.28055952374841403,0.45497910109593975,0.39667039032398604
0.09120896838520323,0.03838403790225736,7.0946365368205875,1.828931283394459,17.052432231755464,-0.5439223992790967,0.6204455577990965,8.173188529970345,0.6992365113402605,0.28055952374838977,0.4475832001823351,0.3966714175110248
0.09326947266704931,0.040885736458098704,7.092759831968371,1.826090455719788,17.04770080852137,-0.5289176903189727,0.6204492878920483,7.745321691970778,0.6992365113402684,0.28055952374836685,0.44040296799455364,0.39667233293316734
0.09427128460850064,0.04213658573601937,7.091351459507823,1.823961615304189,17.044153243791786,-0.5218882804479192,0.620452098086249,7.442820482904264,0.6992365113402741,0.2805595237483505,0.43697852577683804,0.3966729499436672
0.0952554062419954,0.04338743501394004,7.090418744411136,1.8225498392363204,17.04180189473237,-0.5151477603639253,0.6204539535273149,7.25071517644559,0.6992365113402778,0.28055952374834014,0.433658091129553,0.39667333000835187
0.0972300821019702,0.04596357496381279,7.08900091358913,1.8204007125232555,17.038224500176753,-0.5021020075104251,0.6204567469235316,6.970640371210806,0.6992365113402832,0.2805595237483248,0.427122345045105,0.3966738690497149
0.09913990187327365,0.04853971491368553,7.087118541030782,1.8175514641535675,17.033479073411808,-0.4900641449139126,0.6204603599091538,6.620011650662389,0.6992365113402902,0.280559523748306,0.42096849106760215,0.3966745187024365
0.10103884159709986,0.051184081500145306,7.085234717710536,1.8146998354316508,17.028729791896318,-0.4786325105502505,0.6204638033803953,6.291645366024454,0.6992365113402966,0.28055952374828863,0.4150175171705605,0.39667511370872943
0.10288082066729685,0.05382844808660509,7.083348774657548,1.8118452505588647,17.0239753782178,-0.4680315100711415,0.6204670011828444,5.9838621376151,0.6992365113403026,0.2805595237482729,0.40940819298711545,0.3966756754875196
0.10471229328261028,0.05653544387422204,7.08146133024752,1.80898829477573,17.019217002175825,-0.4579449726578885,0.6204698688327797,5.695302781308287,0.6992365113403081,0.2805595237482589,0.40399265884611857,0.39667622752450427
0.10649334340108596,0.05924243966183888,7.079571765920689,1.8061284346929318,17.014453472610867,-0.44855020886805214,0.6204723187568397,5.424528469847872,0.6992365113403128,0.2805595237482468,0.3988831205535331,0.3966767947256863
0.10826422445851638,0.06200698748502763,7.077680650667542,1.8032662162800495,17.009685874060427,-0.43959559823646266,0.6204743006634101,5.170365315695969,0.6992365113403171,0.2805595237482366,0.39391943065471624,0.3966773954731654
0.10999021743537406,0.06477153530821637,7.075800574335062,1.8003881458700668,17.004913090155746,-0.4312228522873399,0.6204758475468346,4.932800056808445,0.6992365113403204,0.2805595237482287,0.3891284998382947,0.396678043925819
0.11170648439670956,0.06758900207052189,7.073941802067294,1.797485117668311,17.00013614019507,-0.42323097879945243,0.6204770149347868,4.711426931933526,0.6992365113403225,0.2805595237482234,0.3843820612077405,0.3966787402732329
0.11338274465304929,0.0704064688328274,7.072103647684473,1.7945381961701992,16.995353996601516,-0.41388420418061805,0.6204512532175233,5.630150706511985,0.699287980265907,0.2805024446233413,0.38140717320026946,0.39667969093825334
0.11504968189901398,0.07327260465222184,7.070278170607709,1.791592599951577,16.9905676520366,-0.4049487176671078,0.6204508247392188,5.4085874097140865,0.6992900252489472,0.28049953900246266,0.37841801519635715,0.3966804288286425
0.11668066655538877,0.07613874047161628,7.068464997769519,1.788612189496872,16.985776155533458,-0.3957633602559316,0.6204248614692337,5.680948670131973,0.699341375144355,0.2804570065263597,0.376147668384955,0.3966813517348274
0.11830265340831593,0.07904962935722953,7.066661168737612,1.7856356287251147,16.980980451474466,-0.3869525570628704,0.6204233323642149,5.481860038587327,0.6993449626105402,0.28045209058565823,0.373867346002219,0.3966820327726472
0.1198921631607915,0.08196051824284292,7.064866321190434,1.7826296704127458,16.976179649027628,-0.37826876165925144,0.6203994412157918,5.515919320060224,0.6993920109158943,0.28041619622303177,0.3719195119956219,0.39668282254510223
0.12147316327544845,0.08491253761572057,7.063079305419168,1.7795696268832468,16.971374644235226,-0.36951740414576745,0.6203149812836558,5.595268736387958,0.6995610269191229,0.28028297267396185,0.3703186232325062,0.39668386353285523
0.12456779558262229,0.09085434411560062,7.0603932836265555,1.775010025368174,16.964108381861376,-0.35313466211587496,0.6203077140324815,5.362251795189099,0.6995763217042538,0.28026473635582044,0.36721350106649153,0.39668444955562154
0.12759195545994131,0.09686855510549046,7.056854829889576,1.7689398560139862,16.954471672495853,-0.33803770058395455,0.6202990938126726,5.06922608615197,0.699595190358714,0.28024122849849986,0.36421567378704883,0.3966846983336807
0.13055074013071563,0.10294911645199076,7.053338585193221,1.76282991384852,16.9448166606858,-0.32410568715010046,0.6202915634672657,4.791652989612828,0.6996126547810299,0.28021838718415787,0.3613154998341326,0.3966844247705636
0.13344868971339727,0.10909036950064659,7.049843754545102,1.7566810447448813,16.935143453439586,-0.3112419339068985,0.620285102210928,4.525389541974884,0.6996287014836925,0.28019639657402146,0.3584952151491637,0.39668379545089777
0.13628986990337313,0.11528701326210448,7.046369707059127,1.75049392165081,16.925452153226416,-0.29936556241622475,0.620279653663095,4.268187651102278,0.6996434134793817,0.28017533843924736,0.35573394425786903,0.3966829978618007
0.1376876010180842,0.11839854145851958,7.043788853174719,1.7458549340731637,16.9182099120569,-0.29377593195535767,0.6202756092332751,4.087747557336409,0.6996548374506159,0.2801588173222465,0.3543819194082338,0.39668240548167016
0.13907783489558143,0.12153407176551947,7.04206682509318,1.7427340777866955,16.913350556671052,-0.288413975285785,0.6202750033485065,3.9449858551856605,0.6996584016514378,0.28015259737815335,0.3530145657714416,0.39668205176566945
0.14181610471923675,0.12782686563204304,7.039482658519786,1.738007068598595,16.90601673015329,-0.2783119538551601,0.6202709867272357,3.7771711826448224,0.6996705138792109,0.28013498447512875,0.3503340813874247,0.396681671826166
0.14450757383615456,0.1341609871199296,7.0360688553663975,1.7317079651473022,16.89627171694594,-0.26904782864454185,0.62026869280797,3.5275295348832194,0.6996809720966654,0.28011859228589703,0.34763531415240223,0.3966814449363016
0.14583475608768862,0.1373378450482926,7.033530927749949,1.726981786742704,16.888984284867366,-0.2646949526854298,0.6202659012529302,3.3623728342926067,0.6996912949529187,0.28010321254791504,0.34629938097522356,0.3966814597003924
0.14715489553419567,0.14053227810222907,7.031838961286807,1.7238047798311715,16.884098341015925,-0.26053319233924593,0.6202657394319662,3.233244690793374,0.699694735920715,0.2800976306891516,0.34494450395586235,0.3966815325551045
0.14846123413478088,0.14372671115616556,7.030151983201281,1.7206172494916334,16.87920771724214,-0.2565553156273231,0.6202641334429052,3.123963628523926,0.6997011415285035,0.28008820684749264,0.343594406012735,0.396681650998162
0.14976066746749306,0.14693681055500782,7.0284702129536925,1.7174209573028805,16.874312989226055,-0.25274389609096404,0.6202630487690212,3.010087425282089,0.6997064137498418,0.2800804490077058,0.3422347938451302,0.39668179419561017
0.1510473168490258,0.15014690995385005,7.026793490922643,1.7142151959186511,16.869413610901795,-0.2491119412231701,0.6202619717459313,2.89771772574167,0.6997115649269651,0.2800730240292284,0.3408710609107614,0.3966819520407742
0.15232718969444542,0.15337086919224696,7.025122068178934,1.7110002736746721,16.864510138517144,-0.24563795588188753,0.620260858877282,2.787163071777032,0.6997166374785274,0.28006590225984945,0.33949644491280045,0.3966821125137828
0.15359521221437494,0.15659482843064387,7.023455803465295,1.7077758264268772,16.85960204469442,-0.24233109674691938,0.6202596893591662,2.678639751213235,0.6997216279257324,0.28005910002190754,0.33811627849947795,0.39668226361387987
0.15485658095197555,0.15983093594894934,7.021794943870511,1.7045421586304588,16.854689867808567,-0.23917314042899523,0.6202584358386016,2.5722704957455162,0.6997265463934587,0.2800526294714366,0.3367249496533333,0.3966823935732547
0.15610695817720496,0.16306704346725495,7.02013936049334,1.7012989050273257,16.8497730980323,-0.2361700474236261,0.620257070485305,2.468384799789747,0.6997314050519063,0.28004647759764756,0.3353276574222549,0.39668249084276014
0.15735079888789008,0.166313676086141,7.018489292199233,1.698046356501467,16.844852257135443,-0.23330618894874836,0.6202555744735307,2.3670865905029412,0.6997362077905597,0.28004065930983324,0.33391996153026954,0.39668254644251877
0.15858444041591258,0.1695603087050269,7.016844616710973,1.6947841193254312,16.83992685182711,-0.23058487962875088,0.6202539504186142,2.2686692717147268,0.6997409639578513,0.2800351587199151,0.33250685742904745,0.3966825635273375
0.15981165793424157,0.17281592573548749,7.0152055605499255,1.6915124391823857,16.834997388402982,-0.2279926587790242,0.6202522120674586,2.173224154827129,0.6997456757112293,0.2800299863872905,0.33108498087535493,0.3966825490855713
0.16102940948765326,0.1760715427659482,7.013572003166732,1.688230927617148,16.83006338921259,-0.22553069123635383,0.6202503712134335,2.080986930300388,0.6997503494783285,0.2800251240595793,0.32965906869682066,0.396682510024161
0.16224084519881704,0.17933468068524414,7.011944155278673,1.6849398332084269,16.825125346149793,-0.22318736633487538,0.6202484427058739,1.992018611795163,0.6997549855474333,0.28002057796482416,0.3282267229724898,0.3966824532023677
0.16344349508461944,0.18259781860454008,7.010321893994319,1.6816387861711257,16.82018279640012,-0.22096216982284583,0.6202464393968201,1.9064809547043542,0.6997595885399226,0.2800163277049943,0.32679364995643634,0.3966823853858372
0.16582828397953922,0.18913635382668664,7.007894137580509,1.6766522116352625,16.812739292279947,-0.21683620476380194,0.620243322293435,1.784419356401423,0.6997664324117089,0.28001049918854454,0.32391669746175444,0.3966822825988358
0.1670104567977207,0.1924104278389334,7.005489431770052,1.6716762552546922,16.80532953533477,-0.21492330480976457,0.6202401320833995,1.670819227903923,0.6997732013228316,0.28000528986966733,0.32247722152497243,0.39668218277125716
0.16818506500565708,0.19568450185118022,7.003890118040766,1.6683355667625592,16.800370024412576,-0.2131054412710326,0.6202379840146159,1.5993235977631883,0.6997776692904778,0.2800021401393351,0.3210419848178301,0.3966821372100526
0.16935365737977884,0.19896212283077624,7.002296644019827,1.6649850420580927,16.795406521193208,-0.2113755203580093,0.6202358395097088,1.5312480597710707,0.6997821017290292,0.27999924767370266,0.3196093220343584,0.39668211323384955
0.17051523471627753,0.20223974381037227,7.000708866608986,1.661624377051234,16.790438603030594,-0.2097301638239995,0.6202337156259673,1.466627473988215,0.6997864957753245,0.27999657590983484,0.3181821615258986,0.3966821169304339
0.17167088837132566,0.20551971245857192,6.999126917633661,1.6582538562458777,16.785466713008326,-0.20816344074231966,0.6202316286941085,1.4052900741565664,0.6997908502629199,0.2799941336626479,0.31676050829939545,0.3966821535924808
