radius,mass,logT,logRho,logP,logL,mu,eps_nuc,h1,he4,gradr,grada
7.756106031294452e-05,3.9065028837604447e-08,7.380745280018375,5.071656498730191,20.95693964834695,-8.230510337392607,1.3400666743708343,3.087788705805173e-18,3.635026028176489e-36,0.9800726114760175,0.10641887673833463,0.38499372856424663
9.772126194768518e-05,7.813011568424812e-08,7.3807433523249415,5.071645160442966,20.956921534141127,-7.929471552119931,1.340066677136123,3.087266909669979e-18,0.0,0.9800726048262762,0.10642281121894408,0.38499373660535746
0.00012312200711543422,1.5626033211428344e-07,7.380741057173251,5.0716316612577295,20.956899967630747,-7.628420737904761,1.3400666806674821,3.0866488055724954e-18,0.0,0.9800725963692575,0.10643079677244718,0.38499374617987514
0.0001551258715069743,3.1252076542353904e-07,7.380737413462734,5.0716102319191565,20.956865731738446,-7.327352755204442,1.3400666865755733,3.085669682829395e-18,0.0,0.9800725822781234,0.10644475976222112,0.3849937613584398
0.0001954500762280381,6.250416320420503e-07,7.380731628399937,5.071576213172284,20.95681138269737,-7.026256561034513,1.3400666963153909,3.084116650157938e-18,5.8174714506635134e-36,0.9800725591269093,0.10646841317618191,0.3849937854222578
0.00024625911609996225,1.2500833654074114e-06,7.380722442456768,5.071522207258509,20.956725101567567,-6.725112187874367,1.3400667121261332,3.0816524239791085e-18,0.0,0.9800725216290475,0.10650827219984316,0.38499382359759093
0.00031028194799680457,2.5001668323948107e-06,7.380707853490172,5.0714364668045295,20.956588120170235,-6.423886498142126,1.3400667370729773,3.077739022609424e-18,0.0,0.9800724624810513,0.10657505968139543,0.38499388416779934
0.0003909605733921878,5.000333766305441e-06,7.380684676061424,5.071300333534167,20.95637062878305,-6.122533595783456,1.3400667747417783,3.0715145075526568e-18,0.0,0.9800723729405497,0.1066841998875348,0.3849939802944306
0.0004926391133551969,1.0000667634126702e-05,7.380647835491886,5.071084162901801,20.95602526430194,-5.821031636568145,1.3400668290400057,3.06160271916661e-18,0.0,0.9800722431009706,0.10684772184683798,0.3849941328203392
0.0005903130944147335,1.7199137474262594e-05,7.380600184058813,5.07080499841072,20.95557925221721,-5.5851968284925615,1.3400668913848344,3.0487804600866594e-18,5.3086896715927036e-36,0.9800720927379241,0.1069912720317744,0.3849943293191884
0.000663358042054537,2.4397607314398485e-05,7.380553156305728,5.070529883238514,20.95513970461521,-5.43311744408772,1.340066946440859,3.0361403772440417e-18,1.0517213150389503e-40,0.9800719587458093,0.10709808342558215,0.38499452269710477
0.0007744275469540582,3.879454699467027e-05,7.380490280576528,5.070162351268359,20.95455250092209,-5.231188560081014,1.3400670131799322,3.019256611644604e-18,7.485450421213643e-43,0.980071795039695,0.1073069808452904,0.38499478154668526
0.0009321885137797483,6.758842635527802e-05,7.380382240188977,5.069531962736017,20.953545318413823,-4.989042114934884,1.3400671170413145,2.9904058880071873e-18,0.0,0.9800715378263216,0.10770858439147317,0.3849952253924199
0.0011454544549147562,0.00012517618507655766,7.380201734736627,5.068482475396997,20.951868485311596,-4.719574435126755,1.3400672731113803,2.9427655911059317e-18,0.0,0.9800711469226797,0.10839873259091251,0.38499596181363777
0.001425078082392597,0.00024035170251937365,7.379905186001216,5.066768735631526,20.949130191701197,-4.433280213230338,1.3400675022400195,2.8661605992674716e-18,0.0,0.9800705651951519,0.10953492223490108,0.384997156008298
0.0017857230241667005,0.00047070273740449227,7.379421163517484,5.063999242651616,20.944704583621924,-4.136862348107661,1.3400678347912687,2.7456723314205373e-18,0.0,0.9800697068697947,0.11132651196050068,0.384999065701197
0.0021816843821586846,0.0008530151022518976,7.3787197509235725,5.0600506609717915,20.93839388497641,-3.873898696929199,1.340068258513013,2.580798832887095e-18,3.7621752531062493e-35,0.9800685904161566,0.11344306070691494,0.38500173552238515
0.00250544745503604,0.0012842508133539445,7.377934991059894,5.055721191480723,20.931473147711262,-3.6927253842992696,1.3400686724361535,2.4092169964973e-18,0.0,0.9800674710148141,0.11523760645781939,0.38500460149678806
0.0030618642254668137,0.002315212669320442,7.376674251153157,5.048846002107365,20.92048198188925,-3.4340646386327265,1.340069241127757,2.1569553528975066e-18,0.0,0.9800658892655936,0.11784429364551098,0.3850094016121756
0.0038358568712652157,0.004456063373723249,7.374338109063806,5.036357657825074,20.90051388556743,-3.157944331148494,1.3400700982890958,1.7597668053292565e-18,7.323454935187765e-36,0.9800633838901315,0.11893375914304842,0.38501857750403135
0.004760829026824082,0.008255387629433595,7.37068691196537,5.016981167949697,20.869532269680036,-2.8328521957873156,1.3400710984021638,1.2795838125824079e-18,0.0,0.9800601544648523,0.1414272626977381,0.3850360664873494
0.005081959131115498,0.009920816736206444,7.367304878410483,5.002193085064716,20.845831626124575,-3.584370927453404,1.34007174161069,9.625860644518662e-19,1.116936880163925e-35,0.9800578515286781,0.02115248425834756,0.3850401462052406
0.0053724802884290955,0.011586245842979294,7.367009517412369,4.993373403831648,20.83186700470487,-2.6040744504639006,1.3400720894718947,9.24279560006214e-19,3.418806081124963e-40,0.9800565729956309,0.17559668056390165,0.3850794752582466
0.005661711583334662,0.013396371758940298,7.364540218658393,4.984621285854857,20.817795661769715,-2.694449890720157,1.340072346826256,7.551208043305405e-19,0.0,0.9800553869540193,0.12556657220134768,0.3850742978748418
0.006098161966533871,0.016415750767837745,7.362161002725998,4.972716391876912,20.798753880879453,-2.613072902317189,1.3400726436044903,6.173767962286156e-19,1.0394043167167024e-40,0.9800538868968268,0.12700688239939362,0.38508891481323504
0.006635133478060255,0.020603763928126892,7.358711626521346,4.955656090966282,20.771465339801807,-2.519828429352262,1.3400729532602542,4.615823378274873e-19,3.966998445614746e-36,0.9800518946816195,0.1299943156297826,0.385111741853538
0.006994359299277539,0.023693641509291617,7.355287235350157,4.939252086636524,20.74521932782599,-2.460275025029313,1.3400731859707862,3.4658325133723035e-19,0.0,0.9800499902838681,0.13302186419032017,0.38513445920839207
0.0073322524779290965,0.02680465381736005,7.352359349593885,4.9254931003123605,20.723202488523373,-2.4104612403948447,1.3400733607793132,2.7158598039728814e-19,0.0,0.9800483330723473,0.13527091770983257,0.38515450186346295
0.007477600068689501,0.02820260576074423,7.35022827182785,4.915707291007246,20.707539995784565,-2.387060549238596,1.3400734791694555,2.2763747255595583e-19,5.1427078206255546e-36,0.9800470973570373,0.13725883896984936,0.3851688789909907
0.0077626653990935926,0.031044953658345763,7.348201813166473,4.906435421131736,20.692700685602563,-2.3497284156892055,1.3400735781603144,1.9242329494616512e-19,0.0,0.980045921365736,0.1391155878025859,0.385183275573547
0.007902715880303085,0.032489349612563626,7.346145771345775,4.897246447095164,20.677990193708844,-2.3290310803129373,1.340073682714145,1.624014242957665e-19,1.4473721033772963e-35,0.9800446801047943,0.14110061912295183,0.38519724773937913
0.008206565340610561,0.03572705355799549,7.3438711477893515,4.887113138392365,20.66176873806117,-2.2936939566436627,1.3400738169285622,1.3456337082355496e-19,0.0,0.9800432309495289,0.14298421946046153,0.3852135966643476
0.008371451278735948,0.037542128012574234,7.341399895239744,4.876369661921755,20.64456572899768,-2.2723813664565755,1.3400739822731982,1.098156505530898e-19,0.0,0.9800415551758752,0.1450720017243367,0.38523062775219025
0.008583142356271231,0.03992960130599989,7.3393150762820465,4.867376929718632,20.6301657717595,-2.2467127766701465,1.3400741338597688,9.255961983073194e-20,0.0,0.9800400538193605,0.14768519387053874,0.38524533989958004
0.00897392679312724,0.04449611787345812,7.33580217366323,4.852410324705507,20.606198145899473,-2.2090380697207332,1.3400744149088923,6.936494308332702e-20,0.0,0.9800374000212349,0.15027461877612558,0.3852705669619543
0.009288675129905864,0.04831493531788262,7.3314900800703695,4.834535449705093,20.577564902195554,-2.1802106793470646,1.3400748326665872,4.8741496720603283e-20,0.0,0.9800338156028578,0.15267583193994483,0.38530068991130695
0.009420746473891786,0.04995219580678091,7.328628263930902,4.8229195458675305,20.55895377672475,-2.165532179310434,1.3400751689990822,3.858906572678255e-20,0.0,0.9800311937281587,0.1549191618023577,0.3853205683842246
0.009711614290640826,0.0536243362659755,7.325787167741577,4.8113913312932235,20.540485567602737,-2.1460358428638844,1.3400755590177291,3.057738789784707e-20,1.7013979677561416e-36,0.9800283941760904,0.1559162588528122,0.38534119553467383
0.009979138065996058,0.0570766822431699,7.3219252639904235,4.795938884850671,20.51572831844966,-2.1362895219083926,1.3400761807912163,2.2294616756047228e-20,0.0,0.9800242292050219,0.1543505282023136,0.3853694006703376
0.010087516197008022,0.058494148250067296,7.319290770898656,4.785355135139795,20.498775669521315,-2.1353103397562303,1.3400766692723522,1.7970146883692914e-20,0.0,0.9800211127012899,0.15284697439631717,0.38539015907881025
0.010302700301525324,0.06133762996740867,7.31699338658651,4.775918755240788,20.483669458853154,-2.155713065714314,1.3400771377571339,1.4880737947468358e-20,0.0,0.980018191237095,0.14259252781363674,0.3854103737097697
0.010409588742489971,0.06276364567785217,7.314829238702919,4.766471814628144,20.46856593632585,-2.181832865318878,1.3400776575242024,1.245421522975979e-20,0.0,0.9800150538280922,0.13285423290044918,0.38543430986201377
0.010645108831602237,0.06593397173986315,7.312643495326485,4.756098143407115,20.452008580567906,-2.344099453087464,1.3400782829708955,1.0390518090944574e-20,4.529855159929906e-37,0.9800114230570174,0.08931683730351664,0.3854656186478618
0.010748709508325993,0.06733981409411945,7.311164735260144,4.745732327473211,20.4355603668968,-2.57165346076288,1.3400789812853238,9.167034918870248e-21,8.467325570024541e-37,0.9800075215952455,0.05232260080217401,0.3855132589603412
0.010954218934940599,0.07014587776363229,7.310361956754272,4.735954414886503,20.42013002317344,-12.0,1.340079692620645,8.533415010805875e-21,0.0,0.9800036510261991,-0.07107952703007991,0.3855719308693328
0.011221180943249623,0.07381839573809643,7.312059423803626,4.7204888678728505,20.396148296603695,-12.0,1.3400809401934812,9.634163265196147e-21,1.7507146407410955e-37,0.9799971094119901,-0.4069563607948135,0.38573114185258706
0.011354101959015199,0.07565377676634313,7.320498615035873,4.7065994641828,20.375637553882655,-12.0,1.340082144746876,1.8509539465787632e-20,0.0,0.9799910135507803,-0.7233568138251317,0.38602324705720814
0.01141910694722513,0.07655189871109955,7.32801080101622,4.699277283277441,20.365325008158006,-12.0,1.3400827959569679,3.313907938419732e-20,0.0,0.9799877829737621,-0.9406797131313646,0.3862394590282797
0.011484122707551376,0.07745002065585596,7.334441235404249,4.694260338804176,20.358489047328003,-12.0,1.3400832454260314,5.4490297945038e-20,1.6905326713995758e-38,0.9799855795559332,-1.2006338804772339,0.38640915548172555
0.011516648259209599,0.0778990816282341,7.34064073616835,4.6903338635264555,20.353347970047146,-12.0,1.3400835989119413,8.790862666808776e-20,1.4068716396749746e-34,0.9799838664863552,-1.3458934071785225,0.3865144422592191
0.01154919151200344,0.07834814260061225,7.3452737775275185,4.687643821550683,20.34990563081578,-12.0,1.3400838383635916,1.255371422742766e-19,0.0,0.979982709716618,-1.5007567897551357,0.3865939310571488
0.011614350379841935,0.07924626454536861,7.353018621685022,4.683488997166506,20.344719395521064,-12.0,1.3400842104082078,2.2726317917365524e-19,3.826440919149562e-35,0.9799809263850209,-1.8334654413536604,0.386727928933954
0.011641793237194829,0.07962392499014997,7.362087688028429,4.679334867818792,20.33980546134885,-12.0,1.3400845804049206,4.538725532833449e-19,1.4981850869766487e-38,0.9799791731900792,-1.9824149896791214,0.38688513972053507
0.011669266776516411,0.0800015854349313,7.3678802138059245,4.676800941356974,20.336883539457332,-12.0,1.340084796722095,7.0440876183131645e-19,0.0,0.9799781446141214,-2.136145857321539,0.3869867374674748
0.011696775817667747,0.08037924587971267,7.374134684055888,4.6741938173191055,20.33395565612936,-12.0,1.3400850133032791,1.130092176094764e-18,0.0,0.9799771147415604,-2.2935762463436977,0.38709688142318666
0.0117243255283607,0.08075690632449399,7.380863827686594,4.671507929497373,20.33102179482473,-12.0,1.3400852346594654,1.875236147154039e-18,0.0,0.9799760669729645,-2.4537507717891787,0.38721612980469333
0.011751921443744208,0.08113456676927537,7.388077628506289,4.668737455030513,20.328081943478523,-12.0,1.340085459879589,3.2192339927789785e-18,0.0,0.9799750046269136,-2.615342067709915,0.3873440513689617
0.011779569479713895,0.08151222721405667,7.3957822027463545,4.665876424660904,20.325136094897545,-12.0,1.3400856891762132,5.716966769813131e-18,0.0,0.9799739271239835,-2.776521115162407,0.3874810684525508
0.011807275935096473,0.08188988765883805,7.403978281980659,4.662918909801165,20.322184247172814,-12.0,1.3400859217930667,1.0496839522561272e-17,1.470640711080462e-35,0.9799728372633395,-2.9349577290511677,0.3876268640585667
0.011835047479675767,0.08226754810361937,7.412659681891352,4.659859256638418,20.319226404096664,-12.0,1.3400861610615957,1.9906234937956542e-17,2.5904052939089707e-33,0.9799717225929411,-3.0879950125164486,0.38778108650446697
0.011851035701508153,0.08248452681167917,7.419881300964942,4.657368686206146,20.31689477589317,-12.0,1.3400863562118555,3.380285985403365e-17,0.0,0.9799708198239464,-3.1724152165008546,0.38790898167305726
0.011867049101482214,0.08270150551973898,7.425289655695548,4.655512565327019,20.315189989031275,-12.0,1.3400864970240003,5.0164562862900825e-17,5.396806516688959e-33,0.9799701668683227,-3.253425295826963,0.3880040474920227
0.011883089086093567,0.08291848422779872,7.430842522468171,4.653619122689088,20.313483234528874,-12.0,1.3400866373039724,7.511678212177882e-17,2.741144084319267e-36,0.9799695158273104,-3.330380142597905,0.3881013530239435
0.01189915708624553,0.08313546293585851,7.436533275505448,4.651687784040087,20.311774516991964,-12.0,1.3400867783646275,1.134284742831111e-16,4.359550156675266e-33,0.9799688618439157,-3.402610336506234,0.3882008552757646
0.011915254551644454,0.08335244164391832,7.442354116220993,4.64971813884686,20.310063841795685,-12.0,1.3400869197874672,1.726051006887734e-16,0.0,0.9799682065192759,-3.4694391576612063,0.3883017602586298
0.011931382944263411,0.08356942035197812,7.448296055306035,4.64770996476915,20.30835121510693,-12.0,1.340087063007228,2.6449220582980977e-16,4.357222973431912e-33,0.9799675445152131,-3.5301945599452287,0.38840411890350107
0.011947543730868251,0.08378639906003793,7.454348915422093,4.645663251852117,20.306636643884904,-12.0,1.3400872078827941,4.077899190295594e-16,0.0,0.9799668763497303,-3.5842222135142787,0.38850792158225583
0.011963738374644655,0.08400337776809773,7.460501356371669,4.643578225199332,20.304920135895248,-12.0,1.3400873539453673,6.320153937213107e-16,2.5167836901645056e-32,0.9799662037596197,-3.6309306777827746,0.3886120012783688
0.01197996832628321,0.08422035647615754,7.4667409782509395,4.641455357562555,20.303201699702107,-12.0,1.3400875011776023,9.837075317057362e-16,0.0,0.9799655268101043,-3.669883245415485,0.3887165222540766
0.011996235015460531,0.08443733518421734,7.473054583288033,4.639295356424148,20.301481344672087,-12.0,1.3400876501345382,1.5360930406490686e-15,2.719934646388434e-32,0.979964843419196,-3.7008828506876297,0.388821412149574
0.012012539843769071,0.08465431389227712,7.479428585600615,4.637099122839968,20.299759080955685,-12.0,1.3400878008322756,2.404027575456688e-15,1.7421459432532198e-33,0.979964153528475,-3.724001098485103,0.3889258335826583
0.012028884179721469,0.08487129260033693,7.485849473343491,4.634867693817261,20.298034919482767,-12.0,1.3400879525893465,3.766984011695138e-15,0.0,0.9799634596756261,-3.7395729079401527,0.3890299252211461
0.01204526935617844,0.08508827130839673,7.49230426430769,4.632602175948213,20.296308871936798,-12.0,1.340088105123151,5.9043082658864645e-15,1.3737306540207346e-33,0.9799627629189749,-3.748177790185693,0.3891334954328362
0.012061696670435785,0.08530525001645654,7.4987809316292475,4.6303036734766785,20.294580950745083,-12.0,1.340088260653129,9.249271869319568e-15,0.0,0.9799620550398191,-3.7505479488799467,0.3892353921687167
0.012078167386388013,0.08552222872451634,7.505268672879555,4.6279732326706835,20.29285116905255,-12.0,1.3400884186237603,1.4470237106273103e-14,1.875287368059412e-33,0.9799613380453234,-3.747154589397944,0.38933571334467676
0.012094682734034686,0.08573920743257615,7.5117574640710085,4.6256119116026575,20.291119540712725,-12.0,1.3400885807040601,2.2593535777693124e-14,0.0,0.9799606057867603,-3.7380064279580525,0.3894350621480164
0.012102230256183007,0.08583816725164126,7.516484568183862,4.6238728554848665,20.289858196875286,-12.0,1.340088701888534,3.12175770430917e-14,8.178696752676272e-34,0.9799600611529508,-3.731858255217128,0.3895060139606198
0.012109787419301488,0.08593712707070635,7.519436388928759,4.622776416245948,20.289067220906883,-12.0,1.3400887766699237,3.817912676404212e-14,6.0621031394307965e-33,0.9799597241480785,-3.724471564652142,0.38954987350921577
0.012124931031305458,0.08613504670883718,7.523849996718207,4.621121699215716,20.287879649563695,-12.0,1.3400888884565942,5.15461787761034e-14,0.0,0.9799592191306693,-3.7059301498714663,0.38961518508058396
0.012140114465205147,0.08633296634696801,7.529721044637609,4.618894907298079,20.286295441340418,-12.0,1.340089035209296,7.672604018892367e-14,2.0447351978296417e-33,0.9799585552155012,-3.6821970438519287,0.38970103433546954
0.0121553385032874,0.08653088598509882,7.535559971703313,4.616647267431141,20.284709745210684,-12.0,1.3400891816444163,1.1376304210035326e-13,0.0,0.9799578927557516,-3.6531298366718206,0.38978425247533577
0.012170603874480901,0.08672880562322965,7.541358193955478,4.614380413553013,20.283122573979337,-12.0,1.3400893277161579,1.6793318223016817e-13,8.656003811089113e-35,0.9799572317577049,-3.618642582901499,0.3898656389149691
0.012185911247453126,0.08692672526136049,7.547106967053252,4.6120961647062435,20.281533940828613,-12.0,1.340089476196505,2.466784776024038e-13,2.0776064731845694e-39,0.9799565620041408,-3.578738141883666,0.3899451364293574
0.012201261224411538,0.0871246448994913,7.552797527602083,4.609796502300043,20.279943859278944,-12.0,1.3400896268794407,3.6037208953630365e-13,4.593245671548097e-39,0.9799558842612077,-3.5335935334342747,0.3900217189510169
0.012216654336785225,0.08732256453762213,7.558421370945986,4.607483514446925,20.278352343163974,-12.0,1.3400897798546658,5.233283022534508e-13,2.837766415513113e-34,0.979955198439352,-3.483596903814297,0.3900964343033583
0.012232091043587657,0.08752048417575263,7.563970589157553,4.60515931855282,20.276759406585228,-12.0,1.3400899349035489,7.550870058918208e-13,0.0,0.9799545056455112,-3.4288571477296457,0.3901693834083863
0.012263096733139755,0.08791632345201449,7.57214525705492,4.601654010318244,20.27436569226806,-12.0,1.3400901702882486,1.2923721969124116e-12,8.472740349140703e-35,0.9799534538738169,-3.309066511589461,0.39027341887139366
0.012278666208068825,0.08811424309014532,7.580097081683802,4.5981416486895,20.27197222264251,-12.0,1.340090407368259,2.1730585100184727e-12,1.7993280959031283e-39,0.9799523965343804,-3.2444657606305514,0.3903721074977038
0.012294280391746805,0.08831216272827615,7.585283329237377,4.595793370891966,20.27037374937776,-12.0,1.3400905679647228,3.044825639539091e-12,0.0,0.9799516823392048,-3.1769194534459135,0.3904344796266689
0.01230993938405344,0.08851008236640696,7.5903658822565365,4.593444122253098,20.268773928912314,-12.0,1.3400907308549366,4.232453380954392e-12,0.0,0.9799509597774283,-3.107381923530908,0.3904941434225507
